Abs	Wavelength
1.715	200
1.736	205
1.589	210
1.437	215
1.348	220
1.177	225
0.844	230
0.639	235
0.662	240
0.716	245
0.602	250
0.587	255
0.653	260
0.585	265
0.565	270
0.545	275
0.499	280
0.474	285
0.451	290
0.462	295
0.461	300
0.548	305
0.707	310
0.802	315
0.867	320
0.89	325
0.849	330
0.835	335
0.821	340
0.814	345
0.792	350
0.789	355
0.719	360
0.632	365
0.699	370
0.81	375
0.785	380
0.784	385
0.793	390
0.777	395
0.922	400
0.977	405
0.995	410
1.106	415
1.019	420
0.936	425
0.936	430
1.09	435
1.13	440
1.112	445
1.103	450
1.148	455
1.207	460
1.26	465
1.31	470
1.442	475
1.514	480
1.46	485
1.449	490
1.638	495
1.858	500
2.078	505
2.169	510
2.224	515
2.26	520
2.268	525
2.203	530
2.188	535
2.249	540
2.254	545
2.29	550
2.316	555
2.293	560
2.111	565
1.823	570
1.617	575
1.479	580
1.373	585
1.305	590
1.169	595
0.969	600
0.882	605
0.809	610
0.797	615
0.814	620
0.799	625
0.756	630
0.755	635
0.77	640
0.79	645
0.791	650
0.772	655
0.738	660
0.732	665
0.763	670
0.76	675
0.692	680
0.597	685
0.573	690
0.583	695
0.59	700
0.631	705
0.72	710
0.745	715
0.758	720
0.803	725
0.811	730
0.803	735
0.826	740
0.855	745
0.872	750
0.879	755
0.87	760
0.849	765
0.857	770
0.903	775
0.946	780
0.957	785
0.948	790
0.935	795
0.931	800
0.928	805
0.93	810
0.927	815
0.757	820
0.557	825
0.495	830
0.585	835
0.73	840
0.856	845
0.981	850
1.117	855
1.123	860
1.036	865
1.014	870
0.927	875
0.658	880
0.469	885
0.489	890
0.639	895
0.69	900
