Abs	Wavelength
1.696	200
1.719	205
1.578	210
1.429	215
1.344	220
1.173	225
0.84	230
0.633	235
0.656	240
0.71	245
0.596	250
0.582	255
0.648	260
0.581	265
0.562	270
0.541	275
0.496	280
0.472	285
0.448	290
0.459	295
0.459	300
0.545	305
0.705	310
0.799	315
0.865	320
0.888	325
0.848	330
0.832	335
0.817	340
0.811	345
0.788	350
0.786	355
0.718	360
0.631	365
0.697	370
0.808	375
0.782	380
0.78	385
0.79	390
0.773	395
0.917	400
0.975	405
0.993	410
1.104	415
1.017	420
0.933	425
0.933	430
1.088	435
1.129	440
1.112	445
1.031	450
1.146	455
1.206	460
1.259	465
1.308	470
1.44	475
1.513	480
1.457	485
1.447	490
1.635	495
1.855	500
2.074	505
2.171	510
2.218	515
2.259	520
2.271	525
2.202	530
2.19	535
2.249	540
2.253	545
2.289	550
2.315	555
2.292	560
2.117	565
1.829	570
1.622	575
1.484	580
1.377	585
1.307	590
1.172	595
0.97	600
0.883	605
0.81	610
0.797	615
0.816	620
0.8	625
0.758	630
0.755	635
0.77	640
0.791	645
0.791	650
0.772	655
0.739	660
0.731	665
0.765	670
0.76	675
0.693	680
0.596	685
0.574	690
0.584	695
0.589	700
0.631	705
0.719	710
0.745	715
0.76	720
0.802	725
0.813	730
0.802	735
0.824	740
0.856	745
0.872	750
0.879	755
0.87	760
0.846	765
0.855	770
0.905	775
0.945	780
0.957	785
0.95	790
0.934	795
0.929	800
0.932	805
0.93	810
0.923	815
0.757	820
0.558	825
0.49	830
0.583	835
0.734	840
0.858	845
0.977	850
1.119	855
1.128	860
1.033	865
1.012	870
0.929	875
0.657	880
0.463	885
0.483	890
0.64	895
0.692	900
